# LSST_U_Mag LSST_G_Mag LSST_R_Mag LSST_I_Mag LSST_Z_Mag LSST_Y4_Mag Temperature Gravity Metallicity
1.570880296641500085e+00 4.308906382891399822e-01 -1.085035389591600119e-01 -3.321541227291300302e-01 -4.273532746516600644e-01 -2.568467586077100018e-01 5.095000000000000000e+03 3.009999999999999787e+00 -1.800000000000000044e+00
1.579490593929500086e+00 4.313020282692400231e-01 -1.090312536505600172e-01 -3.321851941491300586e-01 -4.270101788116600350e-01 -2.565279260261100203e-01 5.095000000000000000e+03 3.009999999999999787e+00 -1.750000000000000000e+00
1.588100891217500088e+00 4.317134182493400085e-01 -1.095589683419600086e-01 -3.322162655691299760e-01 -4.266670829716600055e-01 -2.562090934445100388e-01 5.095000000000000000e+03 3.009999999999999787e+00 -1.699999999999999956e+00
1.596711188505500090e+00 4.321248082294399939e-01 -1.100866830333599999e-01 -3.322473369891300043e-01 -4.263239871316599761e-01 -2.558902608629100017e-01 5.095000000000000000e+03 3.009999999999999787e+00 -1.649999999999999911e+00
1.605321485793500091e+00 4.325361982095400348e-01 -1.106143977247600052e-01 -3.322784084091299772e-01 -4.259808912916600576e-01 -2.555714282813099647e-01 5.095000000000000000e+03 3.009999999999999787e+00 -1.599999999999999867e+00
1.613931783081500093e+00 4.329475881896400202e-01 -1.111421124161600105e-01 -3.323094798291299501e-01 -4.256377954516600282e-01 -2.552525956997100387e-01 5.095000000000000000e+03 3.009999999999999787e+00 -1.549999999999999822e+00
1.623101050835000114e+00 4.333602112610899781e-01 -1.116696351204100046e-01 -3.323302231767799597e-01 -4.253327284131099839e-01 -2.549841562625599911e-01 5.095000000000000000e+03 3.009999999999999787e+00 -1.499999999999999778e+00
1.635916437657999989e+00 4.336277693597900273e-01 -1.123100510260100077e-01 -3.322710000275799769e-01 -4.247936983547100365e-01 -2.544019809138599597e-01 5.095000000000000000e+03 3.009999999999999787e+00 -1.449999999999999734e+00
1.648731824481000086e+00 4.338953274584900210e-01 -1.129504669316099968e-01 -3.322117768783799940e-01 -4.242546682963099780e-01 -2.538198055651599838e-01 5.095000000000000000e+03 3.009999999999999787e+00 -1.399999999999999689e+00
1.661547211304000182e+00 4.341628855571900147e-01 -1.135908828372099999e-01 -3.321525537291799557e-01 -4.237156382379100306e-01 -2.532376302164600079e-01 5.095000000000000000e+03 3.009999999999999787e+00 -1.349999999999999645e+00
1.674362598126999835e+00 4.344304436558900084e-01 -1.142312987428100030e-01 -3.320933305799800284e-01 -4.231766081795099721e-01 -2.526554548677599765e-01 5.095000000000000000e+03 3.009999999999999787e+00 -1.299999999999999600e+00
1.687177984949999932e+00 4.346980017545900021e-01 -1.148717146484100060e-01 -3.320341074307799900e-01 -4.226375781211099691e-01 -2.520732795190600006e-01 5.095000000000000000e+03 3.009999999999999787e+00 -1.249999999999999556e+00
1.699993371773000028e+00 4.349655598532899958e-01 -1.155121305540099952e-01 -3.319748842815800072e-01 -4.220985480627099662e-01 -2.514911041703599692e-01 5.095000000000000000e+03 3.009999999999999787e+00 -1.199999999999999512e+00
1.555624314212799897e+00 4.252361149859800182e-01 -1.081622683416899877e-01 -3.290272650732899429e-01 -4.224361424635100226e-01 -2.509098034587199932e-01 5.115000000000000000e+03 3.009999999999999787e+00 -1.800000000000000044e+00
1.564234611500800121e+00 4.256475049660800036e-01 -1.086899830330899930e-01 -3.290583364932899713e-01 -4.220930466235099932e-01 -2.505909708771200117e-01 5.115000000000000000e+03 3.009999999999999787e+00 -1.750000000000000000e+00
1.572844908788800122e+00 4.260588949461799890e-01 -1.092176977244899982e-01 -3.290894079132899996e-01 -4.217499507835100192e-01 -2.502721382955199747e-01 5.115000000000000000e+03 3.009999999999999787e+00 -1.699999999999999956e+00
1.581455206076800124e+00 4.264702849262799744e-01 -1.097454124158900035e-01 -3.291204793332899725e-01 -4.214068549435100453e-01 -2.499533057139199932e-01 5.115000000000000000e+03 3.009999999999999787e+00 -1.649999999999999911e+00
1.590065503364800126e+00 4.268816749063799598e-01 -1.102731271072900088e-01 -3.291515507532899454e-01 -4.210637591035100158e-01 -2.496344731323200117e-01 5.115000000000000000e+03 3.009999999999999787e+00 -1.599999999999999867e+00
1.598431487814800045e+00 4.273234740636799867e-01 -1.108029388397900050e-01 -3.292035099436899648e-01 -4.207376504334100487e-01 -2.493288886916200098e-01 5.115000000000000000e+03 3.009999999999999787e+00 -1.549999999999999822e+00
1.606258568973999878e+00 4.276268273210399595e-01 -1.113230553167099957e-01 -3.291759678718899629e-01 -4.202962663079100603e-01 -2.489076040561999936e-01 5.115000000000000000e+03 3.009999999999999787e+00 -1.499999999999999778e+00
1.618794489446000018e+00 4.279074422015399781e-01 -1.119616194878099991e-01 -3.291317607372299392e-01 -4.197643972865099937e-01 -2.483832433845600263e-01 5.115000000000000000e+03 3.009999999999999787e+00 -1.449999999999999734e+00
1.631412612493000180e+00 4.281875375088899927e-01 -1.126019290392600014e-01 -3.290829679083300263e-01 -4.192323846417100319e-01 -2.478321037612599698e-01 5.115000000000000000e+03 3.009999999999999787e+00 -1.399999999999999689e+00
1.644227999316000055e+00 4.284550956075899864e-01 -1.132423449448600045e-01 -3.290237447591299880e-01 -4.186933545833100290e-01 -2.472499284125599939e-01 5.115000000000000000e+03 3.009999999999999787e+00 -1.349999999999999645e+00
1.657043386139000152e+00 4.287226537062899800e-01 -1.138827608504599936e-01 -3.289645216099300051e-01 -4.181543245249099705e-01 -2.466677530638599902e-01 5.115000000000000000e+03 3.009999999999999787e+00 -1.299999999999999600e+00
1.669858772962000026e+00 4.289902118049899737e-01 -1.145231767560599967e-01 -3.289052984607300223e-01 -4.176152944665100231e-01 -2.460855777151599866e-01 5.115000000000000000e+03 3.009999999999999787e+00 -1.249999999999999556e+00
1.682674159784999901e+00 4.292577699036900230e-01 -1.151635926616599997e-01 -3.288460753115299839e-01 -4.170762644081100201e-01 -2.455034023664600107e-01 5.115000000000000000e+03 3.009999999999999787e+00 -1.199999999999999512e+00
1.539400743528799964e+00 4.191349724659800269e-01 -1.077831055010900069e-01 -3.255934426414899829e-01 -4.171442717973100622e-01 -2.445253065251200009e-01 5.135000000000000000e+03 3.009999999999999787e+00 -1.800000000000000044e+00
1.548011040816799966e+00 4.195463624460800123e-01 -1.083108201924899983e-01 -3.256245140614899558e-01 -4.168011759573100328e-01 -2.442064739435200194e-01 5.135000000000000000e+03 3.009999999999999787e+00 -1.750000000000000000e+00
1.556621338104799968e+00 4.199577524261799422e-01 -1.088385348838900035e-01 -3.256555854814899842e-01 -4.164580801173100033e-01 -2.438876413619199823e-01 5.135000000000000000e+03 3.009999999999999787e+00 -1.699999999999999956e+00
1.564987322554799887e+00 4.203995515834799690e-01 -1.093683466163899998e-01 -3.257075446718899481e-01 -4.161319714472099807e-01 -2.435820569212199804e-01 5.135000000000000000e+03 3.009999999999999787e+00 -1.649999999999999911e+00
1.573108994166799945e+00 4.208717599179799818e-01 -1.099002553899900009e-01 -3.257803916326899585e-01 -4.158228499470100203e-01 -2.432897206214199859e-01 5.135000000000000000e+03 3.009999999999999787e+00 -1.599999999999999867e+00
1.581230665778799782e+00 4.213439682524799945e-01 -1.104321641635900020e-01 -3.258532385934899689e-01 -4.155137284468100045e-01 -2.429973843216199914e-01 5.135000000000000000e+03 3.009999999999999787e+00 -1.549999999999999822e+00
1.589057746937999838e+00 4.216473215098399674e-01 -1.109522806405099926e-01 -3.258256965216899670e-01 -4.150723443213100161e-01 -2.425760996861999752e-01 5.135000000000000000e+03 3.009999999999999787e+00 -1.499999999999999778e+00
1.601593667409999977e+00 4.219279363903399860e-01 -1.115908448116099960e-01 -3.257814893870299988e-01 -4.145404752999100051e-01 -2.420517390145599801e-01 5.135000000000000000e+03 3.009999999999999787e+00 -1.449999999999999734e+00
1.614014526680999984e+00 4.222205689063399658e-01 -1.122310480089099977e-01 -3.257431268784299894e-01 -4.140154800687100289e-01 -2.415316351166599818e-01 5.135000000000000000e+03 3.009999999999999787e+00 -1.399999999999999689e+00
1.626435385951999990e+00 4.225132014223400012e-01 -1.128712512062099993e-01 -3.257047643698299799e-01 -4.134904848375099973e-01 -2.410115312187599834e-01 5.135000000000000000e+03 3.009999999999999787e+00 -1.349999999999999645e+00
1.639053508998999931e+00 4.227932967296900157e-01 -1.135115607576600016e-01 -3.256559715409299560e-01 -4.129584721927099800e-01 -2.404603915954600102e-01 5.135000000000000000e+03 3.009999999999999787e+00 -1.299999999999999600e+00
1.651868895822000027e+00 4.230608548283900650e-01 -1.141519766632600186e-01 -3.255967483917300287e-01 -4.124194421343100325e-01 -2.398782162467600065e-01 5.135000000000000000e+03 3.009999999999999787e+00 -1.249999999999999556e+00
1.664684282645000124e+00 4.233284129270900031e-01 -1.147923925688600078e-01 -3.255375252425299903e-01 -4.118804120759099741e-01 -2.392960408980600029e-01 5.135000000000000000e+03 3.009999999999999787e+00 -1.199999999999999512e+00
1.523177172844800031e+00 4.130338299459800355e-01 -1.074039426604899983e-01 -3.221596202096900230e-01 -4.118524011311099908e-01 -2.381408095915200085e-01 5.155000000000000000e+03 3.009999999999999787e+00 -1.800000000000000044e+00
1.531543157294799951e+00 4.134756291032800068e-01 -1.079337543929899945e-01 -3.222115794000900424e-01 -4.115262924610100237e-01 -2.378352251508200066e-01 5.155000000000000000e+03 3.009999999999999787e+00 -1.750000000000000000e+00
1.539664828906800231e+00 4.139478374377799641e-01 -1.084656631665900095e-01 -3.222844263608899973e-01 -4.112171709608100079e-01 -2.375428888510200121e-01 5.155000000000000000e+03 3.009999999999999787e+00 -1.699999999999999956e+00
1.547786500518800068e+00 4.144200457722799769e-01 -1.089975719401899967e-01 -3.223572733216900077e-01 -4.109080494606099920e-01 -2.372505525512199898e-01 5.155000000000000000e+03 3.009999999999999787e+00 -1.649999999999999911e+00
1.555908172130799905e+00 4.148922541067799896e-01 -1.095294807137900117e-01 -3.224301202824899626e-01 -4.105989279604100317e-01 -2.369582162514199952e-01 5.155000000000000000e+03 3.009999999999999787e+00 -1.599999999999999867e+00
1.564029843742800185e+00 4.153644624412800024e-01 -1.100613894873899989e-01 -3.225029672432899730e-01 -4.102898064602100714e-01 -2.366658799516200007e-01 5.155000000000000000e+03 3.009999999999999787e+00 -1.549999999999999822e+00
1.571856924902000241e+00 4.156678156986399753e-01 -1.105815059643100173e-01 -3.224754251714899711e-01 -4.098484223347100275e-01 -2.362445953162000123e-01 5.155000000000000000e+03 3.009999999999999787e+00 -1.499999999999999778e+00
1.584392845373999936e+00 4.159484305791399938e-01 -1.112200701354100207e-01 -3.224312180368300029e-01 -4.093165533133100165e-01 -2.357202346445599894e-01 5.155000000000000000e+03 3.009999999999999787e+00 -1.449999999999999734e+00
1.596813704645000165e+00 4.162410630951399737e-01 -1.118602733327100085e-01 -3.223928555282299935e-01 -4.087915580821100403e-01 -2.352001307466599633e-01 5.155000000000000000e+03 3.009999999999999787e+00 -1.399999999999999689e+00
1.609234563916000171e+00 4.165336956111400091e-01 -1.125004765300099963e-01 -3.223544930196300395e-01 -4.082665628509100086e-01 -2.346800268487599928e-01 5.155000000000000000e+03 3.009999999999999787e+00 -1.349999999999999645e+00
1.621655423187000178e+00 4.168263281271399889e-01 -1.131406797273100118e-01 -3.223161305110300301e-01 -4.077415676197100325e-01 -2.341599229508599667e-01 5.155000000000000000e+03 3.009999999999999787e+00 -1.299999999999999600e+00
1.634076282457999962e+00 4.171189606431400243e-01 -1.137808829246099995e-01 -3.222777680024300206e-01 -4.072165723885100008e-01 -2.336398190529599961e-01 5.155000000000000000e+03 3.009999999999999787e+00 -1.249999999999999556e+00
1.646694405504999903e+00 4.173990559504899833e-01 -1.144211924760600158e-01 -3.222289751735299967e-01 -4.066845597437099835e-01 -2.330886794296599951e-01 5.155000000000000000e+03 3.009999999999999787e+00 -1.199999999999999512e+00
1.506220663646799851e+00 4.070239149575800019e-01 -1.070310709431900043e-01 -3.187884610890899806e-01 -4.066114919746100509e-01 -2.317960570806200105e-01 5.175000000000000000e+03 3.009999999999999787e+00 -1.800000000000000044e+00
1.514342335258799910e+00 4.074961232920800147e-01 -1.075629797167899915e-01 -3.188613080498899910e-01 -4.063023704744100351e-01 -2.315037207808199882e-01 5.175000000000000000e+03 3.009999999999999787e+00 -1.750000000000000000e+00
1.522464006870799968e+00 4.079683316265800275e-01 -1.080948884903900065e-01 -3.189341550106900014e-01 -4.059932489742100747e-01 -2.312113844810200214e-01 5.175000000000000000e+03 3.009999999999999787e+00 -1.699999999999999956e+00
1.530585678482800027e+00 4.084405399610799847e-01 -1.086267972639899937e-01 -3.190070019714900118e-01 -4.056841274740100589e-01 -2.309190481812199991e-01 5.175000000000000000e+03 3.009999999999999787e+00 -1.649999999999999911e+00
1.538707350094799864e+00 4.089127482955799975e-01 -1.091587060375900087e-01 -3.190798489322900222e-01 -4.053750059738100431e-01 -2.306267118814200323e-01 5.175000000000000000e+03 3.009999999999999787e+00 -1.599999999999999867e+00
1.546829021706800145e+00 4.093849566300800102e-01 -1.096906148111899959e-01 -3.191526958930900326e-01 -4.050658844736100272e-01 -2.303343755816200100e-01 5.175000000000000000e+03 3.009999999999999787e+00 -1.549999999999999822e+00
1.554656102865999978e+00 4.096883098874400386e-01 -1.102107312881100143e-01 -3.191251538212900307e-01 -4.046245003481100388e-01 -2.299130909461999939e-01 5.175000000000000000e+03 3.009999999999999787e+00 -1.499999999999999778e+00
1.567192023338000118e+00 4.099689247679400017e-01 -1.108492954592100038e-01 -3.190809466866300070e-01 -4.040926313267099723e-01 -2.293887302745599988e-01 5.175000000000000000e+03 3.009999999999999787e+00 -1.449999999999999734e+00
1.579612882609000124e+00 4.102615572839399816e-01 -1.114894986565100193e-01 -3.190425841780299976e-01 -4.035676360955099962e-01 -2.288686263766600004e-01 5.175000000000000000e+03 3.009999999999999787e+00 -1.399999999999999689e+00
1.592033741879999909e+00 4.105541897999399614e-01 -1.121297018538100071e-01 -3.190042216694299881e-01 -4.030426408643100200e-01 -2.283485224787599743e-01 5.175000000000000000e+03 3.009999999999999787e+00 -1.349999999999999645e+00
1.604454601151000137e+00 4.108468223159399413e-01 -1.127699050511100087e-01 -3.189658591608299787e-01 -4.025176456331099883e-01 -2.278284185808599760e-01 5.175000000000000000e+03 3.009999999999999787e+00 -1.299999999999999600e+00
1.616875460421999922e+00 4.111394548319400322e-01 -1.134101082484100104e-01 -3.189274966522299692e-01 -4.019926504019100122e-01 -2.273083146829599777e-01 5.175000000000000000e+03 3.009999999999999787e+00 -1.249999999999999556e+00
1.629296319693000150e+00 4.114320873479400120e-01 -1.140503114457100120e-01 -3.188891341436299598e-01 -4.014676551707099805e-01 -2.267882107850599793e-01 5.175000000000000000e+03 3.009999999999999787e+00 -1.199999999999999512e+00
1.489019841610799810e+00 4.010444091463800098e-01 -1.066602962669900012e-01 -3.154381897388900402e-01 -4.013875699880100067e-01 -2.254645527106199920e-01 5.195000000000000000e+03 3.009999999999999787e+00 -1.800000000000000044e+00
1.497141513222799869e+00 4.015166174808800226e-01 -1.071922050405900023e-01 -3.155110366996899396e-01 -4.010784484878100464e-01 -2.251722164108199697e-01 5.195000000000000000e+03 3.009999999999999787e+00 -1.750000000000000000e+00
1.505263184834799928e+00 4.019888258153799798e-01 -1.077241138141900034e-01 -3.155838836604899500e-01 -4.007693269876100306e-01 -2.248798801110200030e-01 5.195000000000000000e+03 3.009999999999999787e+00 -1.699999999999999956e+00
1.513384856446799986e+00 4.024610341498799926e-01 -1.082560225877900045e-01 -3.156567306212899604e-01 -4.004602054874100148e-01 -2.245875438112200084e-01 5.195000000000000000e+03 3.009999999999999787e+00 -1.649999999999999911e+00
1.521506528058800045e+00 4.029332424843800053e-01 -1.087879313613900056e-01 -3.157295775820899708e-01 -4.001510839872099989e-01 -2.242952075114200139e-01 5.195000000000000000e+03 3.009999999999999787e+00 -1.599999999999999867e+00
1.529628199670800104e+00 4.034054508188800181e-01 -1.093198401349900067e-01 -3.158024245428899812e-01 -3.998419624870100386e-01 -2.240028712116199916e-01 5.195000000000000000e+03 3.009999999999999787e+00 -1.549999999999999822e+00
1.537455280829999937e+00 4.037088040762400465e-01 -1.098399566119100113e-01 -3.157748824710899793e-01 -3.994005783615099947e-01 -2.235815865761999754e-01 5.195000000000000000e+03 3.009999999999999787e+00 -1.499999999999999778e+00
1.549991201302000077e+00 4.039894189567399541e-01 -1.104785207830100008e-01 -3.157306753364300667e-01 -3.988687093401099837e-01 -2.230572259045600081e-01 5.195000000000000000e+03 3.009999999999999787e+00 -1.449999999999999734e+00
1.562412060573000083e+00 4.042820514727399894e-01 -1.111187239803100163e-01 -3.156923128278300572e-01 -3.983437141089100075e-01 -2.225371220066600098e-01 5.195000000000000000e+03 3.009999999999999787e+00 -1.399999999999999689e+00
1.574832919844000312e+00 4.045746839887400248e-01 -1.117589271776100041e-01 -3.156539503192300478e-01 -3.978187188777099759e-01 -2.220170181087599837e-01 5.195000000000000000e+03 3.009999999999999787e+00 -1.349999999999999645e+00
1.587253779115000096e+00 4.048673165047400047e-01 -1.123991303749100057e-01 -3.156155878106300383e-01 -3.972937236465099997e-01 -2.214969142108600131e-01 5.195000000000000000e+03 3.009999999999999787e+00 -1.299999999999999600e+00
1.599674638385999881e+00 4.051599490207399845e-01 -1.130393335722100073e-01 -3.155772253020300289e-01 -3.967687284153100236e-01 -2.209768103129599870e-01 5.195000000000000000e+03 3.009999999999999787e+00 -1.249999999999999556e+00
1.612095497657000109e+00 4.054525815367399644e-01 -1.136795367695100228e-01 -3.155388627934300194e-01 -3.962437331841100474e-01 -2.204567064150599609e-01 5.195000000000000000e+03 3.009999999999999787e+00 -1.199999999999999512e+00
1.473138748064799941e+00 3.951033833706300014e-01 -1.062561611613399987e-01 -3.120219682650899884e-01 -3.961037522612800288e-01 -2.191179077017300081e-01 5.215000000000000000e+03 3.009999999999999787e+00 -1.800000000000000044e+00
1.481260419676800000e+00 3.955755917051299586e-01 -1.067880699349399998e-01 -3.120948152258899988e-01 -3.957946307610800130e-01 -2.188255714019299858e-01 5.215000000000000000e+03 3.009999999999999787e+00 -1.750000000000000000e+00
1.489382091288800058e+00 3.960478000396299714e-01 -1.073199787085399870e-01 -3.121676621866900092e-01 -3.954855092608799971e-01 -2.185332351021299913e-01 5.215000000000000000e+03 3.009999999999999787e+00 -1.699999999999999956e+00
1.497503762900800117e+00 3.965200083741299841e-01 -1.078518874821400020e-01 -3.122405091474900196e-01 -3.951763877606799813e-01 -2.182408988023299967e-01 5.215000000000000000e+03 3.009999999999999787e+00 -1.649999999999999911e+00
1.505625434512799954e+00 3.969922167086299969e-01 -1.083837962557399892e-01 -3.123133561082900300e-01 -3.948672662604800210e-01 -2.179485625025300299e-01 5.215000000000000000e+03 3.009999999999999787e+00 -1.599999999999999867e+00
1.513747106124800235e+00 3.974644250431300097e-01 -1.089157050293400042e-01 -3.123862030690899294e-01 -3.945581447602800051e-01 -2.176562262027299799e-01 5.215000000000000000e+03 3.009999999999999787e+00 -1.549999999999999822e+00
1.521868777736800071e+00 3.979366333776300224e-01 -1.094476138029400053e-01 -3.124590500298899953e-01 -3.942490232600800448e-01 -2.173638899029299854e-01 5.215000000000000000e+03 3.009999999999999787e+00 -1.499999999999999778e+00
1.534064395412799930e+00 3.982530286271699915e-01 -1.100920938271000016e-01 -3.124342948736099634e-01 -3.937324363053000265e-01 -2.168475357871499920e-01 5.215000000000000000e+03 3.009999999999999787e+00 -1.449999999999999734e+00
